0.502225 	0 	0 	-372.179
0.50678 	0 	0 	-352.698
0.511549 	0 	0 	-336.502
0.516543 	0 	0 	-321.341
0.516543 	0 	6.93889e-18 	-367.908
0.521771 	0 	0 	-303.288
0.521771 	0 	6.93889e-18 	-328.942
0.527245 	0 	0 	-281.834
0.527245 	0 	6.93889e-18 	-283.127
0.532976 	0 	0 	-256.937
0.532976 	0 	6.93889e-18 	-234.636
0.538976 	0 	6.245e-18 	-188.947
0.538976 	0 	0 	-230.569
0.545259 	0 	3.81639e-18 	-150.282
0.545259 	0 	0 	-204.448
0.551837 	0 	2.08167e-18 	-119.811
0.551837 	0 	0 	-178.549
0.558725 	0 	6.93889e-19 	-96.3778
0.558725 	0 	0 	-152.39
0.565936 	0 	-6.93889e-19 	-77.6804
0.565936 	0 	0 	-125.992
0.573486 	0 	-2.08167e-18 	-61.7624
0.573486 	0 	0 	-100.289
0.581392 	0 	-3.46945e-18 	-47.7472
0.581392 	0 	0 	-76.7083
0.589669 	0 	-3.46945e-18 	-35.6017
0.589669 	0 	-1.38778e-18 	-56.4394
0.598335 	0 	-3.46945e-18 	-25.5628
0.598335 	0 	-2.08167e-18 	-40.045
0.607408 	0 	-1.38778e-18 	-27.4702
0.607408 	0 	-3.46945e-18 	-17.7165
0.616908 	0 	-1.38778e-18 	-18.2665
0.616908 	0 	-3.46945e-18 	-11.8424
0.626855 	0 	-3.85186e-34 	-11.7659
0.626855 	0 	-3.46945e-18 	-7.61091
0.637269 	0 	1.38778e-18 	-7.32808
0.637269 	0 	-1.73472e-18 	-4.67003
0.648173 	0 	-1.73472e-18 	-4.39984
0.648173 	0 	-3.46945e-19 	-2.69636
0.65959 	0 	-2.42861e-18 	-1.42084
0.65959 	0 	-4.85723e-18 	-2.53177
0.671543 	0 	-6.245e-18 	-1.39128
0.671543 	0 	-4.16334e-18 	-0.628894
0.684059 	0 	-5.89806e-18 	-0.713772
0.684059 	0 	-2.77556e-18 	-0.15416
0.697162 	0 	-3.1225e-18 	0.119126
0.697162 	0 	-5.89806e-18 	-0.324825
0.710882 	2.1784e-18 	3.90304e-18 	-0.110232
0.725247 	2.1784e-18 	3.82576e-18 	0.00375835
0.740287 	2.1784e-18 	2.78603e-19 	0.0625158
0.756034 	2.1784e-18 	2.00556e-19 	0.0924452
0.772522 	2.1784e-18 	5.32642e-18 	0.108111
0.789785 	2.1784e-18 	5.24793e-18 	0.117032
0.807859 	2.1784e-18 	3.43463e-18 	0.12278
0.826783 	2.1784e-18 	5.16711e-18 	0.126892
0.846597 	2.23919e-19 	-1.21531e-17 	0.129936
0.867342 	0 	4.51028e-18 	0.414989
0.867342 	2.23919e-19 	-1.07734e-17 	0.132076
0.889063 	0 	4.16334e-18 	0.412774
0.889063 	2.23919e-19 	-8.00586e-18 	0.133333
0.911805 	0 	2.77556e-18 	0.409644
0.911805 	2.23919e-19 	-6.62608e-18 	0.133707
0.935616 	0 	1.38778e-18 	0.405581
0.935616 	2.23919e-19 	-6.63404e-18 	0.133231
0.960546 	0 	1.38778e-18 	0.400607
0.960546 	2.23919e-19 	-6.64195e-18 	0.131955
0.986649 	0 	2.77556e-18 	0.394845
0.986649 	2.23919e-19 	-6.64981e-18 	0.130518
1.04027 	0 	4.16334e-18 	0.382375
1.04027 	2.23919e-19 	-6.65356e-18 	0.12829
1.12228 	0 	2.77556e-18 	0.361277
1.12228 	2.23919e-19 	-6.65322e-18 	0.125821
1.20725 	0 	1.38778e-18 	0.334793
1.20725 	2.23919e-19 	-6.65288e-18 	0.118328
1.29529 	0 	2.77556e-18 	0.307295
1.29529 	2.23919e-19 	-8.0403e-18 	0.108985
1.38652 	0 	3.81639e-18 	0.279807
1.38652 	2.23919e-19 	-8.03992e-18 	0.0985077
1.48106 	0 	3.46945e-18 	0.253516
1.48106 	2.23919e-19 	-6.65176e-18 	0.0881223
1.57901 	0 	5.20417e-18 	0.228588
1.57901 	2.23919e-19 	-8.03913e-18 	0.0779989
1.68051 	0 	6.93889e-18 	0.205545
1.68051 	2.23919e-19 	-8.03871e-18 	0.0685327
1.78568 	0 	6.93889e-18 	0.184374
1.78568 	2.23919e-19 	-6.6505e-18 	0.0597631
1.89466 	0 	6.93889e-18 	0.165241
1.89466 	2.23919e-19 	-6.65005e-18 	0.0518949
2.00758 	0 	6.93889e-18 	0.147777
2.00758 	2.23919e-19 	-6.64958e-18 	0.0447041
2.12458 	0 	5.20417e-18 	0.131964
2.12458 	2.23919e-19 	-6.64909e-18 	0.0382495
2.24582 	0 	3.46945e-18 	0.11783
2.24582 	2.23919e-19 	-8.03636e-18 	0.0327031
2.37145 	0 	3.46945e-19 	0.105104
2.37145 	2.23919e-19 	-8.03583e-18 	0.0276553
2.50162 	0 	-1.38778e-18 	0.0936556
2.50162 	2.23919e-19 	-6.6475e-18 	0.0232052
2.6365 	0 	0 	0.0834706
2.6365 	2.23919e-19 	-3.17748e-18 	0.0193931
2.77627 	0 	0 	0.0744185
2.77627 	2.23919e-19 	1.46128e-19 	0.0161424
2.92109 	0 	0 	0.0664908
2.92109 	0 	0 	0.0134427
3.07115 	0 	-1.73472e-18 	0.0592912
3.07115 	0 	0 	0.0110788
3.22664 	0 	-5.20417e-18 	0.0530255
3.22664 	0 	1.73472e-18 	0.00917408
3.38776 	0 	-6.93889e-18 	0.0475245
3.38776 	0 	5.20417e-18 	0.00764051
3.55471 	0 	-5.20417e-18 	0.0426884
3.55471 	0 	6.93889e-18 	0.00642116
3.7277 	0 	6.93889e-18 	0.00547256
3.7277 	0 	-3.46945e-18 	0.0384375
3.90695 	0 	6.93889e-18 	0.00475857
3.90695 	0 	-3.46945e-18 	0.0347069
4.09268 	0 	-3.46945e-18 	0.0314277
4.09268 	0 	6.93889e-18 	0.00424435
4.28514 	0 	-3.46945e-18 	0.0285532
4.28514 	0 	5.55112e-18 	0.00390991
4.48456 	0 	4.16334e-18 	0.00369233
4.48456 	0 	-1.73472e-18 	0.025996
4.69119 	0 	4.16334e-18 	0.00360848
4.69119 	0 	0 	0.0237506
