0.502225 	0 	0 	-1.36418e-05 	7.84989e-05 	-1.05432e-21
0.50678 	0 	0 	-7.81374e-05 	0.000229077 	3.74235e-21
0.511549 	0 	0 	-0.000222363 	0.000375696 	-9.26687e-22
0.516543 	0 	0 	-0.000446457 	0.000517873 	-4.22998e-22
0.516543 	0 	6.93889e-18 	-0.000446458 	-0.000517896 	-3.57183e-21
0.521771 	0 	0 	-0.000749845 	0.000655114 	-1.64874e-21
0.521771 	0 	6.93889e-18 	-0.000749845 	-0.000655144 	1.73717e-21
0.527245 	0 	0 	-0.00113486 	0.000786853 	1.35237e-21
0.527245 	0 	6.93889e-18 	-0.00113486 	-0.000786889 	-1.47137e-21
0.532976 	0 	0 	-0.00160404 	0.00091251 	-3.58389e-21
0.532976 	0 	6.93889e-18 	-0.00160404 	-0.000912551 	3.40428e-21
0.538976 	0 	6.245e-18 	-0.00215919 	-0.00103156 	-3.967e-21
0.538976 	0 	0 	-0.00215919 	0.00103151 	3.70213e-21
0.545259 	0 	3.81639e-18 	-0.00280145 	-0.00114335 	1.19628e-21
0.545259 	0 	0 	-0.00280145 	0.0011433 	-7.64834e-22
0.551837 	0 	2.08167e-18 	-0.00353138 	-0.00124737 	2.45658e-21
0.551837 	0 	0 	-0.00353138 	0.00124731 	-2.59344e-21
0.558725 	0 	6.93889e-19 	-0.00434887 	-0.00134309 	-3.46888e-21
0.558725 	0 	0 	-0.00434887 	0.00134303 	3.07644e-21
0.565936 	0 	-6.93889e-19 	-0.00525311 	-0.00143 	-2.28599e-22
0.565936 	0 	0 	-0.00525311 	0.00142993 	-9.9588e-22
0.573486 	0 	-2.08167e-18 	-0.0062425 	-0.00150762 	3.19239e-21
0.573486 	0 	0 	-0.0062425 	0.00150755 	-3.7639e-21
0.581392 	0 	-3.46945e-18 	-0.00731463 	-0.00157551 	-1.62597e-21
0.581392 	0 	0 	-0.00731463 	0.00157544 	1.75863e-21
0.589669 	0 	-3.46945e-18 	-0.0084662 	-0.00163329 	-4.50308e-22
0.589669 	0 	-1.38778e-18 	-0.0084662 	0.00163322 	6.74673e-22
0.598335 	0 	-3.46945e-18 	-0.00969304 	-0.00168061 	2.10348e-21
0.598335 	0 	-2.08167e-18 	-0.00969304 	0.00168053 	-2.66683e-21
0.607408 	0 	-1.38778e-18 	-0.0109901 	0.00171711 	6.4169e-21
0.607408 	0 	-3.46945e-18 	-0.0109901 	-0.0017172 	-5.39646e-21
0.616908 	0 	-1.38778e-18 	-0.0123513 	0.00174275 	-1.99215e-21
0.616908 	0 	-3.46945e-18 	-0.0123513 	-0.00174284 	1.29466e-21
0.626855 	0 	-3.85186e-34 	-0.0137697 	0.00175732 	-3.61085e-21
0.626855 	0 	-3.46945e-18 	-0.0137697 	-0.00175741 	3.27724e-21
0.637269 	0 	1.38778e-18 	-0.0152377 	0.00176078 	2.36853e-21
0.637269 	0 	-1.73472e-18 	-0.0152377 	-0.00176087 	-3.03822e-21
0.648173 	0 	-1.73472e-18 	-0.0167464 	0.00175319 	1.59926e-21
0.648173 	0 	-3.46945e-19 	-0.0167464 	-0.00175328 	-2.84186e-21
0.65959 	0 	-2.42861e-18 	-0.0182865 	-0.00173482 	4.34575e-21
0.65959 	0 	-4.85723e-18 	-0.0182865 	0.00173473 	-1.51003e-21
0.671543 	0 	-6.245e-18 	-0.019848 	0.00170568 	-1.57717e-21
0.671543 	0 	-4.16334e-18 	-0.019848 	-0.00170578 	1.67165e-21
0.684059 	0 	-5.89806e-18 	-0.0214201 	0.00166647 	2.80132e-21
0.684059 	0 	-2.77556e-18 	-0.0214201 	-0.00166658 	-4.92496e-21
0.697162 	0 	-3.1225e-18 	-0.0229919 	-0.00161778 	-4.43843e-22
0.697162 	0 	-5.89806e-18 	-0.0229919 	0.00161768 	-1.99895e-21
0.710882 	2.1784e-18 	3.90304e-18 	-0.0245521 	0.00156001 	2.63691e-21
0.725247 	2.1784e-18 	3.82576e-18 	-0.0260896 	0.00149436 	-2.48629e-21
0.740287 	2.1784e-18 	2.78603e-19 	-0.0275934 	0.00142179 	-3.29512e-21
0.756034 	2.1784e-18 	2.00556e-19 	-0.0290531 	0.00134355 	-1.2372e-21
0.772522 	2.1784e-18 	5.32642e-18 	-0.0304592 	0.00126106 	3.49035e-21
0.789785 	2.1784e-18 	5.24793e-18 	-0.0318036 	0.00117596 	1.51283e-21
0.807859 	2.1784e-18 	3.43463e-18 	-0.0330798 	0.00109004 	-5.34888e-21
0.826783 	2.1784e-18 	5.16711e-18 	-0.0342831 	0.00100527 	3.08792e-21
0.846597 	2.23919e-19 	-1.21531e-17 	-0.0354117 	0.000923741 	6.09364e-21
0.867342 	0 	4.51028e-18 	-0.0364662 	-0.000847739 	9.41901e-21
0.867342 	2.23919e-19 	-1.07734e-17 	-0.0364662 	0.000847642 	-7.54087e-21
0.889063 	0 	4.16334e-18 	-0.037451 	-0.000779252 	1.59836e-21
0.889063 	2.23919e-19 	-8.00586e-18 	-0.037451 	0.000779156 	2.53491e-21
0.911805 	0 	2.77556e-18 	-0.0383734 	-0.000720398 	-2.70785e-21
0.911805 	2.23919e-19 	-6.62608e-18 	-0.0383734 	0.000720303 	2.12718e-22
0.935616 	0 	1.38778e-18 	-0.0392413 	-0.000672935 	-7.64517e-22
0.935616 	2.23919e-19 	-6.63404e-18 	-0.0392413 	0.000672841 	1.39152e-22
0.960546 	0 	1.38778e-18 	-0.0400637 	-0.000638963 	-1.47224e-21
0.960546 	2.23919e-19 	-6.64195e-18 	-0.0400637 	0.000638871 	-3.1686e-21
0.986649 	0 	2.77556e-18 	-0.0408866 	-0.000621055 	3.46717e-21
0.986649 	2.23919e-19 	-6.64981e-18 	-0.0408866 	0.000620964 	6.1393e-21
1.04027 	0 	4.16334e-18 	-0.0427013 	-0.000602799 	-1.16549e-21
1.04027 	2.23919e-19 	-6.65356e-18 	-0.0427013 	0.000602711 	1.12898e-21
1.12228 	0 	2.77556e-18 	-0.0445926 	-6.43108e-05 	5.36856e-22
1.12228 	2.23919e-19 	-6.65322e-18 	-0.0445926 	6.42404e-05 	-7.47377e-22
1.20725 	0 	1.38778e-18 	-0.0436924 	0.000411827 	-7.57965e-22
1.20725 	2.23919e-19 	-6.65288e-18 	-0.0436924 	-0.000411872 	6.65071e-22
1.29529 	0 	2.77556e-18 	-0.0408061 	0.000924504 	-2.70237e-22
1.29529 	2.23919e-19 	-8.0403e-18 	-0.0408061 	-0.000924513 	-8.73909e-23
1.38652 	0 	3.81639e-18 	-0.0353991 	0.00140016 	2.12371e-21
1.38652 	2.23919e-19 	-8.03992e-18 	-0.0353991 	-0.00140012 	-1.66724e-21
1.48106 	0 	3.46945e-18 	-0.0276335 	0.0018214 	-1.26999e-21
1.48106 	2.23919e-19 	-6.65176e-18 	-0.0276335 	-0.00182131 	1.37736e-21
1.57901 	0 	5.20417e-18 	-0.0176227 	0.00217867 	-3.91402e-22
1.57901 	2.23919e-19 	-8.03913e-18 	-0.0176227 	-0.00217852 	3.76128e-23
1.68051 	0 	6.93889e-18 	-0.00555276 	0.00247078 	8.85037e-22
1.68051 	2.23919e-19 	-8.03871e-18 	-0.00555277 	-0.00247056 	-1.05925e-21
1.78568 	0 	6.93889e-18 	0.00837602 	0.00270228 	-1.73092e-22
1.78568 	2.23919e-19 	-6.6505e-18 	0.008376 	-0.002702 	4.44476e-22
1.89466 	0 	6.93889e-18 	0.0239693 	0.00288054 	-3.4522e-22
1.89466 	2.23919e-19 	-6.65005e-18 	0.0239693 	-0.00288018 	5.43652e-22
2.00758 	0 	6.93889e-18 	0.04105 	0.00301382 	1.07299e-22
2.00758 	2.23919e-19 	-6.64958e-18 	0.04105 	-0.00301339 	-3.72274e-23
2.12458 	0 	5.20417e-18 	0.0594654 	0.00311028 	9.21625e-22
2.12458 	2.23919e-19 	-6.64909e-18 	0.0594654 	-0.00310979 	-3.4992e-22
2.24582 	0 	3.46945e-18 	0.0790888 	0.00317736 	-5.67748e-22
2.24582 	2.23919e-19 	-8.03636e-18 	0.0790888 	-0.00317681 	3.78617e-22
2.37145 	0 	3.46945e-19 	0.0998192 	0.00322152 	-1.03555e-22
2.37145 	2.23919e-19 	-8.03583e-18 	0.0998192 	-0.00322093 	-3.31743e-22
2.50162 	0 	-1.38778e-18 	0.12158 	0.00324819 	-3.78686e-24
2.50162 	2.23919e-19 	-6.6475e-18 	0.12158 	-0.00324757 	-1.58199e-23
2.6365 	0 	0 	0.144316 	0.0032618 	-2.49723e-22
2.6365 	2.23919e-19 	-3.17748e-18 	0.144316 	-0.00326117 	2.6116e-22
2.77627 	0 	0 	0.16799 	0.00326587 	3.15639e-22
2.77627 	2.23919e-19 	1.46128e-19 	0.16799 	-0.00326525 	-5.89257e-22
2.92109 	0 	0 	0.192584 	0.00326311 	2.11926e-23
2.92109 	0 	0 	0.192584 	-0.00326251 	-1.62414e-23
3.07115 	0 	-1.73472e-18 	0.21809 	0.00325544 	4.87139e-23
3.07115 	0 	0 	0.21809 	-0.00325488 	6.13037e-23
3.22664 	0 	-5.20417e-18 	0.24451 	0.00324411 	1.48562e-22
3.22664 	0 	1.73472e-18 	0.24451 	-0.00324361 	-1.18725e-22
3.38776 	0 	-6.93889e-18 	0.27185 	0.00322979 	-2.09407e-23
3.38776 	0 	5.20417e-18 	0.27185 	-0.00322936 	-1.73946e-22
3.55471 	0 	-5.20417e-18 	0.300122 	0.00321256 	-6.18384e-23
3.55471 	0 	6.93889e-18 	0.300123 	-0.00321222 	2.9397e-23
3.7277 	0 	6.93889e-18 	0.32933 	-0.00319189 	5.52073e-23
3.7277 	0 	-3.46945e-18 	0.32933 	0.00319214 	-3.99534e-23
3.90695 	0 	6.93889e-18 	0.359476 	-0.00316756 	2.24389e-23
3.90695 	0 	-3.46945e-18 	0.359476 	0.00316772 	1.19082e-22
4.09268 	0 	-3.46945e-18 	0.39054 	0.00313848 	-1.55688e-22
4.09268 	0 	6.93889e-18 	0.39054 	-0.00313841 	2.55346e-23
4.28514 	0 	-3.46945e-18 	0.422514 	0.00310296 	6.11111e-23
4.28514 	0 	5.55112e-18 	0.422514 	-0.00310298 	-7.46766e-23
4.48456 	0 	4.16334e-18 	0.455315 	-0.00306063 	-5.59569e-24
4.48456 	0 	-1.73472e-18 	0.455315 	0.00306053 	-3.2899e-23
4.69119 	0 	4.16334e-18 	0.488947 	-0.00300903 	-3.83736e-24
4.69119 	0 	0 	0.488947 	0.00300884 	1.07502e-23
