0.502225 	0 	0 	-463.947
0.50678 	0 	0 	-440.662
0.511549 	0 	0 	-418.129
0.516543 	0 	0 	-391.352
0.516543 	0 	6.93889e-18 	-313.461
0.521771 	0 	0 	-358.188
0.521771 	0 	6.93889e-18 	-290.058
0.527245 	0 	0 	-321.76
0.527245 	0 	6.93889e-18 	-265.852
0.532976 	0 	0 	-284.433
0.532976 	0 	6.93889e-18 	-240.148
0.538976 	0 	6.245e-18 	-212.525
0.538976 	0 	0 	-247.863
0.545259 	0 	3.81639e-18 	-183.218
0.545259 	0 	0 	-212.603
0.551837 	0 	2.08167e-18 	-152.966
0.551837 	0 	0 	-178.898
0.558725 	0 	6.93889e-19 	-123.361
0.558725 	0 	0 	-147.252
0.565936 	0 	-6.93889e-19 	-96.178
0.565936 	0 	0 	-118.302
0.573486 	0 	-2.08167e-18 	-72.718
0.573486 	0 	0 	-92.5823
0.581392 	0 	-3.46945e-18 	-53.5267
0.581392 	0 	0 	-70.447
0.589669 	0 	-3.46945e-18 	-38.5077
0.589669 	0 	-1.38778e-18 	-52.1181
0.598335 	0 	-3.46945e-18 	-27.0611
0.598335 	0 	-2.08167e-18 	-37.4404
0.607408 	0 	-1.38778e-18 	-26.0654
0.607408 	0 	-3.46945e-18 	-18.5379
0.616908 	0 	-1.38778e-18 	-17.5475
0.616908 	0 	-3.46945e-18 	-12.3448
0.626855 	0 	-3.85186e-34 	-11.3917
0.626855 	0 	-3.46945e-18 	-7.96835
0.637269 	0 	1.38778e-18 	-7.10531
0.637269 	0 	-1.73472e-18 	-4.97321
0.648173 	0 	-1.73472e-18 	-4.23654
0.648173 	0 	-3.46945e-19 	-2.99616
0.65959 	0 	-2.42861e-18 	-1.74163
0.65959 	0 	-4.85723e-18 	-2.39766
0.671543 	0 	-6.245e-18 	-1.27236
0.671543 	0 	-4.16334e-18 	-0.983118
0.684059 	0 	-5.89806e-18 	-0.618213
0.684059 	0 	-2.77556e-18 	-0.545323
0.697162 	0 	-3.1225e-18 	-0.305957
0.697162 	0 	-5.89806e-18 	-0.261223
0.710882 	2.1784e-18 	3.90304e-18 	-0.0822175
0.725247 	2.1784e-18 	3.82576e-18 	-0.00264843
0.740287 	2.1784e-18 	2.78603e-19 	0.0232737
0.756034 	2.1784e-18 	2.00556e-19 	0.0223699
0.772522 	2.1784e-18 	5.32642e-18 	0.00939709
0.789785 	2.1784e-18 	5.24793e-18 	-0.00821312
0.807859 	2.1784e-18 	3.43463e-18 	-0.0270595
0.826783 	2.1784e-18 	5.16711e-18 	-0.0457839
0.846597 	2.23919e-19 	-1.21531e-17 	-0.0639578
0.867342 	0 	4.51028e-18 	-0.225479
0.867342 	2.23919e-19 	-1.07734e-17 	-0.081513
0.889063 	0 	4.16334e-18 	-0.24215
0.889063 	2.23919e-19 	-8.00586e-18 	-0.0984741
0.911805 	0 	2.77556e-18 	-0.258167
0.911805 	2.23919e-19 	-6.62608e-18 	-0.114864
0.935616 	0 	1.38778e-18 	-0.273517
0.935616 	2.23919e-19 	-6.63404e-18 	-0.130777
0.960546 	0 	1.38778e-18 	-0.288163
0.960546 	2.23919e-19 	-6.64195e-18 	-0.146184
0.986649 	0 	2.77556e-18 	-0.302394
0.986649 	2.23919e-19 	-6.64981e-18 	-0.161415
1.04027 	0 	4.16334e-18 	-0.330161
1.04027 	2.23919e-19 	-6.65356e-18 	-0.191293
1.12228 	0 	2.77556e-18 	-0.361333
1.12228 	2.23919e-19 	-6.65322e-18 	-0.227987
1.20725 	0 	1.38778e-18 	-0.382744
1.20725 	2.23919e-19 	-6.65288e-18 	-0.257259
1.29529 	0 	2.77556e-18 	-0.394029
1.29529 	2.23919e-19 	-8.0403e-18 	-0.277678
1.38652 	0 	3.81639e-18 	-0.397916
1.38652 	2.23919e-19 	-8.03992e-18 	-0.291093
1.48106 	0 	3.46945e-18 	-0.395398
1.48106 	2.23919e-19 	-6.65176e-18 	-0.297977
1.57901 	0 	5.20417e-18 	-0.387797
1.57901 	2.23919e-19 	-8.03913e-18 	-0.299281
1.68051 	0 	6.93889e-18 	-0.376324
1.68051 	2.23919e-19 	-8.03871e-18 	-0.295875
1.78568 	0 	6.93889e-18 	-0.361391
1.78568 	2.23919e-19 	-6.6505e-18 	-0.288365
1.89466 	0 	6.93889e-18 	-0.343731
1.89466 	2.23919e-19 	-6.65005e-18 	-0.277516
2.00758 	0 	6.93889e-18 	-0.324057
2.00758 	2.23919e-19 	-6.64958e-18 	-0.264051
2.12458 	0 	5.20417e-18 	-0.303424
2.12458 	2.23919e-19 	-6.64909e-18 	-0.248705
2.24582 	0 	3.46945e-18 	-0.28079
2.24582 	2.23919e-19 	-8.03636e-18 	-0.231045
2.37145 	0 	3.46945e-19 	-0.258045
2.37145 	2.23919e-19 	-8.03583e-18 	-0.213035
2.50162 	0 	-1.38778e-18 	-0.234751
2.50162 	2.23919e-19 	-6.6475e-18 	-0.193934
2.6365 	0 	0 	-0.21114
2.6365 	2.23919e-19 	-3.17748e-18 	-0.174135
2.77627 	0 	0 	-0.187456
2.77627 	2.23919e-19 	1.46128e-19 	-0.153937
2.92109 	0 	0 	-0.164023
2.92109 	0 	0 	-0.133726
3.07115 	0 	-1.73472e-18 	-0.141147
3.07115 	0 	0 	-0.113848
3.22664 	0 	-5.20417e-18 	-0.11915
3.22664 	0 	1.73472e-18 	-0.0946236
3.38776 	0 	-6.93889e-18 	-0.0983626
3.38776 	0 	5.20417e-18 	-0.0764048
3.55471 	0 	-5.20417e-18 	-0.0790904
3.55471 	0 	6.93889e-18 	-0.0594974
3.7277 	0 	6.93889e-18 	-0.0441834
3.7277 	0 	-3.46945e-18 	-0.0616066
3.90695 	0 	6.93889e-18 	-0.0306514
3.90695 	0 	-3.46945e-18 	-0.0460993
4.09268 	0 	-3.46945e-18 	-0.0326697
4.09268 	0 	6.93889e-18 	-0.0190016
4.28514 	0 	-3.46945e-18 	-0.0213339
4.28514 	0 	5.55112e-18 	-0.0092623
4.48456 	0 	4.16334e-18 	-0.00142257
4.48456 	0 	-1.73472e-18 	-0.0120705
4.69119 	0 	4.16334e-18 	0.00466374
4.69119 	0 	0 	-0.00471752
