0.502225 	0 	0 	0.551357 	-1.30542 	-1.30485e-18
0.50678 	0 	0 	1.03715 	-0.413734 	4.76186e-18
0.511549 	0 	0 	0.982099 	2.77421 	-1.30047e-18
0.516543 	0 	0 	0.0817768 	5.42674 	-2.83238e-19
0.516543 	0 	6.93889e-18 	3.95993 	-2.87481 	-3.99078e-18
0.521771 	0 	0 	-1.18592 	6.41764 	-1.86471e-18
0.521771 	0 	6.93889e-18 	4.24345 	-2.99438 	1.98385e-18
0.527245 	0 	0 	-2.19889 	5.97351 	1.32799e-18
0.527245 	0 	6.93889e-18 	4.2292 	-2.86379 	-1.41126e-18
0.532976 	0 	0 	-2.65909 	4.46113 	-3.13454e-18
0.532976 	0 	6.93889e-18 	3.9069 	-2.89844 	3.20041e-18
0.538976 	0 	6.245e-18 	3.33168 	-3.19236 	-3.22819e-18
0.538976 	0 	0 	-2.52586 	2.54503 	3.10644e-18
0.545259 	0 	3.81639e-18 	2.58334 	-3.6464 	8.83128e-19
0.545259 	0 	0 	-1.992 	0.869374 	-7.82049e-19
0.551837 	0 	2.08167e-18 	1.75318 	-4.04739 	1.41115e-18
0.551837 	0 	0 	-1.33856 	-0.258859 	-1.50806e-18
0.558725 	0 	6.93889e-19 	0.963432 	-4.15253 	-1.5909e-18
0.558725 	0 	0 	-0.779822 	-0.843668 	1.68579e-18
0.565936 	0 	-6.93889e-19 	0.335338 	-3.81481 	2.37233e-19
0.565936 	0 	0 	-0.406698 	-1.0031 	-3.55609e-19
0.573486 	0 	-2.08167e-18 	-0.0669595 	-3.09858 	9.19742e-19
0.573486 	0 	0 	-0.20261 	-0.873432 	-1.14598e-18
0.581392 	0 	-3.46945e-18 	-0.259507 	-2.2321 	-4.58891e-19
0.581392 	0 	0 	-0.10125 	-0.600772 	5.62833e-19
0.589669 	0 	-3.46945e-18 	-0.306128 	-1.44599 	-1.09321e-19
0.589669 	0 	-1.38778e-18 	-0.0496172 	-0.316738 	1.44506e-19
0.598335 	0 	-3.46945e-18 	-0.27625 	-0.86127 	2.15071e-19
0.598335 	0 	-2.08167e-18 	-0.0194396 	-0.101842 	-2.8783e-19
0.607408 	0 	-1.38778e-18 	0.000471129 	0.0224276 	6.00345e-19
0.607408 	0 	-3.46945e-18 	-0.218837 	-0.485484 	-4.5869e-19
0.616908 	0 	-1.38778e-18 	0.0137555 	0.0733804 	-1.92681e-19
0.616908 	0 	-3.46945e-18 	-0.159492 	-0.26841 	1.44693e-19
0.626855 	0 	-3.85186e-34 	0.0212952 	0.0811087 	-1.6041e-19
0.626855 	0 	-3.46945e-18 	-0.109777 	-0.150949 	1.25922e-19
0.637269 	0 	1.38778e-18 	0.0237553 	0.0707252 	8.21465e-20
0.637269 	0 	-1.73472e-18 	-0.0727578 	-0.087919 	-6.90699e-20
0.648173 	0 	-1.73472e-18 	0.0218773 	0.056694 	1.74339e-20
0.648173 	0 	-3.46945e-19 	-0.0471634 	-0.0521656 	-1.78368e-20
0.65959 	0 	-2.42861e-18 	-0.0308295 	-0.029882 	3.4505e-20
0.65959 	0 	-4.85723e-18 	0.0170631 	0.0448005 	-3.73833e-20
0.671543 	0 	-6.245e-18 	0.0108579 	0.0361595 	-6.74437e-21
0.671543 	0 	-4.16334e-18 	-0.0215199 	-0.0148794 	5.97877e-21
0.684059 	0 	-5.89806e-18 	0.00410612 	0.0300817 	9.08717e-21
0.684059 	0 	-2.77556e-18 	-0.017076 	-0.00465808 	-8.3854e-21
0.697162 	0 	-3.1225e-18 	-0.0158479 	0.00182883 	3.02514e-21
0.697162 	0 	-5.89806e-18 	-0.00258362 	0.0255899 	-2.64148e-21
0.710882 	2.1784e-18 	3.90304e-18 	-0.00866425 	0.021929 	8.91883e-22
0.725247 	2.1784e-18 	3.82576e-18 	-0.0140466 	0.0186074 	8.35607e-22
0.740287 	2.1784e-18 	2.78603e-19 	-0.0188609 	0.015367 	2.12256e-21
0.756034 	2.1784e-18 	2.00556e-19 	-0.0232784 	0.012079 	9.51136e-22
0.772522 	2.1784e-18 	5.32642e-18 	-0.0274603 	0.00869437 	-1.56742e-21
0.789785 	2.1784e-18 	5.24793e-18 	-0.0315305 	0.00519795 	-2.56071e-22
0.807859 	2.1784e-18 	3.43463e-18 	-0.0355725 	0.00158961 	1.6389e-21
0.826783 	2.1784e-18 	5.16711e-18 	-0.0396357 	-0.00212183 	-6.73062e-22
0.846597 	2.23919e-19 	-1.21531e-17 	-0.043742 	-0.00592137 	-3.43925e-22
0.867342 	0 	4.51028e-18 	-0.0467529 	-0.0164691 	2.59615e-21
0.867342 	2.23919e-19 	-1.07734e-17 	-0.047895 	-0.00978963 	-2.49334e-22
0.889063 	0 	4.16334e-18 	-0.0509158 	-0.0203188 	1.32288e-21
0.889063 	2.23919e-19 	-8.00586e-18 	-0.0520872 	-0.0137032 	-2.41924e-22
0.911805 	0 	2.77556e-18 	-0.0551008 	-0.0241488 	-1.30053e-21
0.911805 	2.23919e-19 	-6.62608e-18 	-0.0562921 	-0.0176271 	-8.59024e-23
0.935616 	0 	1.38778e-18 	-0.0593193 	-0.0278572 	-3.82559e-22
0.935616 	2.23919e-19 	-6.63404e-18 	-0.0605395 	-0.0214609 	-6.62963e-23
0.960546 	0 	1.38778e-18 	-0.0634615 	-0.0315711 	-1.14086e-21
0.960546 	2.23919e-19 	-6.64195e-18 	-0.0647195 	-0.0253072 	-1.87079e-21
0.986649 	0 	2.77556e-18 	-0.0676847 	-0.0357226 	3.77355e-21
0.986649 	2.23919e-19 	-6.64981e-18 	-0.0689487 	-0.0296005 	3.4836e-21
1.04027 	0 	4.16334e-18 	-0.076219 	-0.0429317 	-1.73449e-21
1.04027 	2.23919e-19 	-6.65356e-18 	-0.0771596 	-0.0371532 	1.31019e-21
1.12228 	0 	2.77556e-18 	-0.0868012 	-0.0507891 	7.07708e-22
1.12228 	2.23919e-19 	-6.65322e-18 	-0.0880385 	-0.0466211 	-8.34858e-22
1.20725 	0 	1.38778e-18 	-0.0938327 	-0.0573084 	-1.75442e-21
1.20725 	2.23919e-19 	-6.65288e-18 	-0.0953344 	-0.054721 	1.33453e-21
1.29529 	0 	2.77556e-18 	-0.0975938 	-0.0618685 	-8.67251e-22
1.29529 	2.23919e-19 	-8.0403e-18 	-0.0993989 	-0.0610624 	6.68799e-23
1.38652 	0 	3.81639e-18 	-0.0972977 	-0.064083 	5.35275e-21
1.38652 	2.23919e-19 	-8.03992e-18 	-0.0994593 	-0.0650085 	-3.66017e-21
1.48106 	0 	3.46945e-18 	-0.0928539 	-0.0634658 	-3.31667e-21
1.48106 	2.23919e-19 	-6.65176e-18 	-0.0954435 	-0.0660997 	3.17052e-21
1.57901 	0 	5.20417e-18 	-0.0840334 	-0.0597005 	-1.13126e-21
1.57901 	2.23919e-19 	-8.03913e-18 	-0.0871447 	-0.0639588 	1.58448e-22
1.68051 	0 	6.93889e-18 	-0.070741 	-0.0526323 	2.43946e-21
1.68051 	2.23919e-19 	-8.03871e-18 	-0.0744592 	-0.0584325 	-2.61943e-21
1.78568 	0 	6.93889e-18 	-0.0529267 	-0.0422396 	-4.63796e-22
1.78568 	2.23919e-19 	-6.6505e-18 	-0.0573258 	-0.0494586 	1.1011e-21
1.89466 	0 	6.93889e-18 	-0.0306329 	-0.0287975 	-9.42785e-22
1.89466 	2.23919e-19 	-6.65005e-18 	-0.0357532 	-0.0373189 	1.35462e-21
2.00758 	0 	6.93889e-18 	-0.00389615 	-0.0126874 	3.24681e-22
2.00758 	2.23919e-19 	-6.64958e-18 	-0.00976088 	-0.0223672 	-1.18541e-22
2.12458 	0 	5.20417e-18 	0.0271078 	0.005233 	2.4931e-21
2.12458 	2.23919e-19 	-6.64909e-18 	0.0205235 	-0.00545855 	-8.81211e-22
2.24582 	0 	3.46945e-18 	0.0621107 	0.024181 	-1.47188e-21
2.24582 	2.23919e-19 	-8.03636e-18 	0.0548989 	0.0126893 	8.95471e-22
2.37145 	0 	3.46945e-19 	0.100676 	0.043078 	-2.60783e-22
2.37145 	2.23919e-19 	-8.03583e-18 	0.092958 	0.0309747 	-7.21886e-22
2.50162 	0 	-1.38778e-18 	0.142324 	0.0608572 	-6.38115e-25
2.50162 	2.23919e-19 	-6.6475e-18 	0.134277 	0.0483558 	-3.99849e-23
2.6365 	0 	0 	0.186502 	0.0764949 	-4.85848e-22
2.6365 	2.23919e-19 	-3.17748e-18 	0.178336 	0.0637995 	4.57366e-22
2.77627 	0 	0 	0.232629 	0.0891009 	5.94053e-22
2.77627 	2.23919e-19 	1.46128e-19 	0.224572 	0.0763973 	-9.90836e-22
2.92109 	0 	0 	0.280139 	0.0979818 	7.04754e-23
2.92109 	0 	0 	0.272421 	0.0854295 	-5.78256e-23
3.07115 	0 	-1.73472e-18 	0.32854 	0.10268 	1.07588e-22
3.07115 	0 	0 	0.321371 	0.0904031 	3.52493e-23
3.22664 	0 	-5.20417e-18 	0.377419 	0.103034 	1.85249e-22
3.22664 	0 	1.73472e-18 	0.370981 	0.0911243 	-1.31677e-22
3.38776 	0 	-6.93889e-18 	0.426447 	0.0991608 	-1.66987e-23
3.38776 	0 	5.20417e-18 	0.420876 	0.087683 	-9.16399e-23
3.55471 	0 	-5.20417e-18 	0.475363 	0.0914664 	-4.23424e-23
3.55471 	0 	6.93889e-18 	0.470744 	0.0804677 	4.80611e-23
3.7277 	0 	6.93889e-18 	0.520285 	0.0701397 	4.2656e-24
3.7277 	0 	-3.46945e-18 	0.523927 	0.0806178 	-9.29674e-24
3.90695 	0 	6.93889e-18 	0.569181 	0.057583 	-9.68812e-24
3.90695 	0 	-3.46945e-18 	0.571876 	0.0674966 	-1.36087e-23
4.09268 	0 	-3.46945e-18 	0.618871 	0.0531368 	8.08647e-23
4.09268 	0 	6.93889e-18 	0.617039 	0.043842 	-1.79618e-23
4.28514 	0 	-3.46945e-18 	0.66448 	0.0386267 	-4.546e-23
4.28514 	0 	5.55112e-18 	0.66339 	0.0300149 	6.90491e-23
4.48456 	0 	4.16334e-18 	0.707655 	0.017133 	1.11168e-23
4.48456 	0 	-1.73472e-18 	0.708152 	0.024994 	4.49549e-23
4.69119 	0 	4.16334e-18 	0.749255 	0.00603103 	7.06732e-24
4.69119 	0 	0 	0.749314 	0.0130799 	-2.0929e-23
