0.502225 	0 	0 	0.283295 	-1.1343 	-4.74249e-19
0.50678 	0 	0 	0.837078 	1.11735 	1.8113e-18
0.511549 	0 	0 	1.34945 	5.50697 	-5.10921e-19
0.516543 	0 	0 	2.17824 	7.66973 	1.23942e-19
0.516543 	0 	6.93889e-18 	1.85736 	3.06318 	-4.956e-18
0.521771 	0 	0 	3.03343 	7.27673 	-7.20115e-19
0.521771 	0 	6.93889e-18 	0.796214 	1.4993 	2.39568e-18
0.527245 	0 	0 	3.77857 	5.85778 	5.73265e-19
0.527245 	0 	6.93889e-18 	-0.413814 	-0.936759 	-1.61846e-18
0.532976 	0 	0 	4.12258 	4.21363 	-1.28325e-18
0.532976 	0 	6.93889e-18 	-1.57618 	-3.28592 	3.55576e-18
0.538976 	0 	6.245e-18 	-2.42684 	-4.56918 	-3.55982e-18
0.538976 	0 	0 	4.00152 	2.8181 	1.40263e-18
0.545259 	0 	3.81639e-18 	-2.75513 	-4.45895 	9.82726e-19
0.545259 	0 	0 	3.53203 	1.96607 	-4.13612e-19
0.551837 	0 	2.08167e-18 	-2.55739 	-3.40956 	1.56272e-18
0.551837 	0 	0 	2.87796 	1.67801 	-6.45992e-19
0.558725 	0 	6.93889e-19 	-2.02092 	-2.12944 	-1.82259e-18
0.558725 	0 	0 	2.17893 	1.7341 	7.60697e-19
0.565936 	0 	-6.93889e-19 	-1.38806 	-1.07648 	1.99155e-19
0.565936 	0 	0 	1.53057 	1.84795 	-4.67528e-20
0.573486 	0 	-2.08167e-18 	-0.830814 	-0.389094 	1.0436e-18
0.573486 	0 	0 	0.999968 	1.81718 	-3.09111e-19
0.581392 	0 	-3.46945e-18 	-0.415716 	-0.0340024 	-5.34252e-19
0.581392 	0 	0 	0.621913 	1.58567 	1.6562e-19
0.589669 	0 	-3.46945e-18 	-0.134458 	0.0795989 	-1.18343e-19
0.589669 	0 	-1.38778e-18 	0.395313 	1.21795 	1.77948e-20
0.598335 	0 	-3.46945e-18 	0.0451074 	0.0520354 	1.68595e-19
0.598335 	0 	-2.08167e-18 	0.28373 	0.821743 	5.49944e-20
0.607408 	0 	-1.38778e-18 	0.240073 	0.479843 	-1.55306e-19
0.607408 	0 	-3.46945e-18 	0.152112 	-0.0322492 	-3.23519e-19
0.616908 	0 	-1.38778e-18 	0.228022 	0.227186 	5.17549e-20
0.616908 	0 	-3.46945e-18 	0.208395 	-0.117643 	1.17929e-19
0.626855 	0 	-3.85186e-34 	0.224975 	0.0617283 	1.45891e-19
0.626855 	0 	-3.46945e-18 	0.230833 	-0.178167 	-6.57559e-21
0.637269 	0 	1.38778e-18 	0.219408 	-0.0364586 	-9.80971e-20
0.637269 	0 	-1.73472e-18 	0.233221 	-0.209913 	6.29489e-20
0.648173 	0 	-1.73472e-18 	0.209156 	-0.0898976 	-7.33393e-20
0.648173 	0 	-3.46945e-19 	0.223893 	-0.219499 	1.18012e-19
0.65959 	0 	-2.42861e-18 	0.207929 	-0.215403 	-1.75309e-19
0.65959 	0 	-4.85723e-18 	0.195614 	-0.116239 	6.56267e-20
0.671543 	0 	-6.245e-18 	0.180291 	-0.12703 	7.93114e-20
0.671543 	0 	-4.16334e-18 	0.18895 	-0.204206 	-7.82685e-20
0.684059 	0 	-5.89806e-18 	0.164322 	-0.128867 	-1.41026e-19
0.684059 	0 	-2.77556e-18 	0.169156 	-0.189822 	2.41524e-19
0.697162 	0 	-3.1225e-18 	0.149919 	-0.174107 	2.38884e-20
0.697162 	0 	-5.89806e-18 	0.148459 	-0.125182 	1.04313e-19
0.710882 	2.1784e-18 	3.90304e-18 	0.133137 	-0.117729 	-1.35055e-19
0.725247 	2.1784e-18 	3.82576e-18 	0.118554 	-0.107469 	1.28339e-19
0.740287 	2.1784e-18 	2.78603e-19 	0.104789 	-0.0949719 	1.67698e-19
0.756034 	2.1784e-18 	2.00556e-19 	0.0918825 	-0.0806828 	6.18045e-20
0.772522 	2.1784e-18 	5.32642e-18 	0.0798294 	-0.0649929 	-1.76151e-19
0.789785 	2.1784e-18 	5.24793e-18 	0.0686091 	-0.04825 	-7.2429e-20
0.807859 	2.1784e-18 	3.43463e-18 	0.0581987 	-0.0307735 	2.72696e-19
0.826783 	2.1784e-18 	5.16711e-18 	0.0485771 	-0.012861 	-1.56877e-19
0.846597 	2.23919e-19 	-1.21531e-17 	0.0397243 	0.00520557 	-3.04142e-19
0.867342 	0 	4.51028e-18 	0.0322874 	0.0114652 	-4.7872e-19
0.867342 	2.23919e-19 	-1.07734e-17 	0.0316246 	0.023158 	3.78332e-19
0.889063 	0 	4.16334e-18 	0.0260477 	0.0304562 	-7.73768e-20
0.889063 	2.23919e-19 	-8.00586e-18 	0.0242776 	0.0407378 	-1.29298e-19
0.911805 	0 	2.77556e-18 	0.0205812 	0.0487358 	1.39205e-19
0.911805 	2.23919e-19 	-6.62608e-18 	0.0177247 	0.0576885 	-1.38494e-20
0.935616 	0 	1.38778e-18 	0.0156142 	0.0660423 	3.986e-20
0.935616 	2.23919e-19 	-6.63404e-18 	0.0117168 	0.0737293 	-8.54905e-21
0.960546 	0 	1.38778e-18 	0.0116048 	0.0825273 	7.38835e-20
0.960546 	2.23919e-19 	-6.64195e-18 	0.0066863 	0.0890442 	1.51916e-19
0.986649 	0 	2.77556e-18 	0.00800061 	0.0984332 	-1.78441e-19
0.986649 	2.23919e-19 	-6.64981e-18 	0.00209074 	0.10383 	-3.11203e-19
1.04027 	0 	4.16334e-18 	0.003216 	0.126216 	6.36369e-20
1.04027 	2.23919e-19 	-6.65356e-18 	-0.00429772 	0.129484 	-6.05799e-20
1.12228 	0 	2.77556e-18 	0.00456456 	0.154044 	-3.02112e-20
1.12228 	2.23919e-19 	-6.65322e-18 	-0.00410985 	0.152196 	4.05639e-20
1.20725 	0 	1.38778e-18 	0.0174964 	0.168445 	3.57765e-20
1.20725 	2.23919e-19 	-6.65288e-18 	0.00781554 	0.161658 	-3.06527e-20
1.29529 	0 	2.77556e-18 	0.0407431 	0.171217 	1.0281e-20
1.29529 	2.23919e-19 	-8.0403e-18 	0.0306624 	0.159321 	6.3129e-21
1.38652 	0 	3.81639e-18 	0.0757449 	0.163583 	-9.51372e-20
1.38652 	2.23919e-19 	-8.03992e-18 	0.0657645 	0.147187 	7.35382e-20
1.48106 	0 	3.46945e-18 	0.121526 	0.147684 	5.47823e-20
1.48106 	2.23919e-19 	-6.65176e-18 	0.112171 	0.127498 	-5.8376e-20
1.57901 	0 	5.20417e-18 	0.176922 	0.126148 	1.541e-20
1.57901 	2.23919e-19 	-8.03913e-18 	0.168667 	0.10317 	-8.42462e-22
1.68051 	0 	6.93889e-18 	0.239847 	0.101766 	-3.55874e-20
1.68051 	2.23919e-19 	-8.03871e-18 	0.233011 	0.0771311 	4.18678e-20
1.78568 	0 	6.93889e-18 	0.307871 	0.0771152 	6.88973e-21
1.78568 	2.23919e-19 	-6.6505e-18 	0.302613 	0.0520045 	-1.71651e-20
1.89466 	0 	6.93889e-18 	0.378364 	0.0543795 	1.29478e-20
1.89466 	2.23919e-19 	-6.65005e-18 	0.374635 	0.0297471 	-2.01882e-20
2.00758 	0 	6.93889e-18 	0.448772 	0.0348161 	-4.2777e-21
2.00758 	2.23919e-19 	-6.64958e-18 	0.446378 	0.0114877 	1.63847e-21
2.12458 	0 	5.20417e-18 	0.516896 	0.0191253 	-3.38552e-20
2.12458 	2.23919e-19 	-6.64909e-18 	0.51559 	-0.00228452 	1.27571e-20
2.24582 	0 	3.46945e-18 	0.58093 	0.00734274 	2.05661e-20
2.24582 	2.23919e-19 	-8.03636e-18 	0.580427 	-0.01177 	-1.35629e-20
2.37145 	0 	3.46945e-19 	0.639604 	-0.000930625 	3.68933e-21
2.37145 	2.23919e-19 	-8.03583e-18 	0.639641 	-0.0175815 	1.16797e-20
2.50162 	0 	-1.38778e-18 	0.692172 	-0.00629892 	1.20933e-22
2.50162 	2.23919e-19 	-6.6475e-18 	0.692529 	-0.020516 	5.64222e-22
2.6365 	0 	0 	0.738356 	-0.00946843 	8.75902e-21
2.6365 	2.23919e-19 	-3.17748e-18 	0.738874 	-0.021379 	-9.05304e-21
2.77627 	0 	0 	0.778288 	-0.0110434 	-1.10633e-20
2.77627 	2.23919e-19 	1.46128e-19 	0.778855 	-0.0208711 	2.04091e-20
2.92109 	0 	0 	0.812342 	-0.0115687 	-7.24848e-22
2.92109 	0 	0 	0.812893 	-0.0195948 	5.43779e-22
3.07115 	0 	-1.73472e-18 	0.841085 	-0.0114241 	-1.6872e-21
3.07115 	0 	0 	0.841589 	-0.0179161 	-2.17722e-21
3.22664 	0 	-5.20417e-18 	0.865196 	-0.0109025 	-5.29334e-21
3.22664 	0 	1.73472e-18 	0.865639 	-0.016127 	4.17768e-21
3.38776 	0 	-6.93889e-18 	0.885349 	-0.0101899 	7.71491e-22
3.38776 	0 	5.20417e-18 	0.885729 	-0.0143863 	6.36558e-21
3.55471 	0 	-5.20417e-18 	0.902191 	-0.0094036 	2.32875e-21
3.55471 	0 	6.93889e-18 	0.902514 	-0.0127782 	-1.00556e-21
3.7277 	0 	6.93889e-18 	0.916576 	-0.0113328 	-2.12901e-21
3.7277 	0 	-3.46945e-18 	0.916304 	-0.00860944 	1.55651e-21
3.90695 	0 	6.93889e-18 	0.92841 	-0.0100604 	-8.78136e-22
3.90695 	0 	-3.46945e-18 	0.928181 	-0.00785155 	-4.94612e-21
4.09268 	0 	-3.46945e-18 	0.938228 	-0.00713937 	6.97727e-21
4.09268 	0 	6.93889e-18 	0.938421 	-0.00894133 	-1.20667e-21
4.28514 	0 	-3.46945e-18 	0.94678 	-0.00648117 	-2.84841e-21
4.28514 	0 	5.55112e-18 	0.946943 	-0.00795972 	3.46857e-21
4.48456 	0 	4.16334e-18 	0.954236 	-0.007097 	3.02333e-22
4.48456 	0 	-1.73472e-18 	0.954098 	-0.00587741 	1.81355e-21
4.69119 	0 	4.16334e-18 	0.960509 	-0.00633637 	2.30815e-22
4.69119 	0 	0 	0.960391 	-0.00532609 	-6.86575e-22
