0.502225 	0 	0 	0.303273 	-1.33184 	-8.00852e-19
0.50678 	0 	0 	0.327395 	0.613047 	3.017e-18
0.511549 	0 	0 	-0.140049 	5.44198 	-8.15775e-19
0.516543 	0 	0 	-1.17363 	8.75889 	-4.39192e-20
0.516543 	0 	6.93889e-18 	3.40434 	0.148817 	-4.98653e-18
0.521771 	0 	0 	-2.13065 	8.96902 	-1.24166e-18
0.521771 	0 	6.93889e-18 	3.08404 	0.747172 	2.43729e-18
0.527245 	0 	0 	-2.52067 	6.95931 	9.516e-19
0.527245 	0 	6.93889e-18 	2.63267 	0.909037 	-1.72979e-18
0.532976 	0 	0 	-2.23092 	4.01513 	-2.24683e-18
0.532976 	0 	6.93889e-18 	2.16877 	0.378983 	3.85452e-18
0.538976 	0 	6.245e-18 	1.71243 	-0.729863 	-3.91651e-18
0.538976 	0 	0 	-1.46938 	1.3523 	2.32676e-18
0.545259 	0 	3.81639e-18 	1.21912 	-2.13898 	1.09227e-18
0.545259 	0 	0 	-0.589476 	-0.461261 	-6.08529e-19
0.551837 	0 	2.08167e-18 	0.676764 	-3.46549 	1.69937e-18
0.551837 	0 	0 	0.106708 	-1.46335 	-1.19297e-18
0.558725 	0 	6.93889e-19 	0.165962 	-4.27427 	-1.95499e-18
0.558725 	0 	0 	0.477484 	-1.8591 	1.38555e-18
0.565936 	0 	-6.93889e-19 	-0.199374 	-4.28558 	2.37647e-19
0.565936 	0 	0 	0.547901 	-1.77993 	-2.47865e-19
0.573486 	0 	-2.08167e-18 	-0.368741 	-3.5882 	1.14376e-18
0.573486 	0 	0 	0.445451 	-1.35814 	-9.71888e-19
0.581392 	0 	-3.46945e-18 	-0.378745 	-2.56031 	-5.77449e-19
0.581392 	0 	0 	0.299406 	-0.794514 	4.82992e-19
0.589669 	0 	-3.46945e-18 	-0.303363 	-1.58638 	-1.36531e-19
0.589669 	0 	-1.38778e-18 	0.179807 	-0.288146 	1.24086e-19
0.598335 	0 	-3.46945e-18 	-0.206314 	-0.868929 	2.76653e-19
0.598335 	0 	-2.08167e-18 	0.104908 	0.0513175 	-2.54878e-19
0.607408 	0 	-1.38778e-18 	0.0670674 	0.215029 	5.39387e-19
0.607408 	0 	-3.46945e-18 	-0.122263 	-0.430161 	-5.99778e-19
0.616908 	0 	-1.38778e-18 	0.0519582 	0.252154 	-1.71821e-19
0.616908 	0 	-3.46945e-18 	-0.0619203 	-0.200915 	1.86516e-19
0.626855 	0 	-3.85186e-34 	0.0461434 	0.222422 	-1.52266e-19
0.626855 	0 	-3.46945e-18 	-0.0233739 	-0.0970465 	1.72208e-19
0.637269 	0 	1.38778e-18 	0.0407804 	0.17042 	8.22045e-20
0.637269 	0 	-1.73472e-18 	-0.00121736 	-0.0551237 	-1.01661e-19
0.648173 	0 	-1.73472e-18 	0.0337051 	0.120292 	2.33703e-20
0.648173 	0 	-3.46945e-19 	0.00893017 	-0.0387303 	-3.59505e-20
0.65959 	0 	-2.42861e-18 	0.0109131 	-0.0308713 	6.38922e-20
0.65959 	0 	-4.85723e-18 	0.0255515 	0.0808504 	-4.07119e-20
0.671543 	0 	-6.245e-18 	0.016363 	0.0524062 	-1.27494e-20
0.671543 	0 	-4.16334e-18 	0.00802085 	-0.0255659 	1.45875e-20
0.684059 	0 	-5.89806e-18 	0.00657017 	0.0324074 	2.06163e-20
0.684059 	0 	-2.77556e-18 	0.00236173 	-0.0217166 	-3.17052e-20
0.697162 	0 	-3.1225e-18 	-0.00438516 	-0.0195664 	2.05588e-21
0.697162 	0 	-5.89806e-18 	-0.00282493 	0.0181689 	-1.13473e-20
0.710882 	2.1784e-18 	3.90304e-18 	-0.0111266 	0.0076165 	1.2737e-20
0.725247 	2.1784e-18 	3.82576e-18 	-0.0183643 	-0.000623402 	-1.10005e-20
0.740287 	2.1784e-18 	2.78603e-19 	-0.0247688 	-0.00738507 	-1.4024e-20
0.756034 	2.1784e-18 	2.00556e-19 	-0.0305659 	-0.0131584 	-5.62102e-21
0.772522 	2.1784e-18 	5.32642e-18 	-0.0359502 	-0.0182419 	1.48531e-20
0.789785 	2.1784e-18 	5.24793e-18 	-0.0410661 	-0.0228231 	6.67304e-21
0.807859 	2.1784e-18 	3.43463e-18 	-0.0460118 	-0.0270222 	-2.32695e-20
0.826783 	2.1784e-18 	5.16711e-18 	-0.0508478 	-0.0309121 	1.37682e-20
0.846597 	2.23919e-19 	-1.21531e-17 	-0.0556053 	-0.0345305 	2.77459e-20
0.867342 	0 	4.51028e-18 	-0.0583328 	-0.0453002 	3.94452e-20
0.867342 	2.23919e-19 	-1.07734e-17 	-0.0602953 	-0.03789 	-3.45676e-20
0.889063 	0 	4.16334e-18 	-0.0627757 	-0.0481075 	6.27797e-21
0.889063 	2.23919e-19 	-8.00586e-18 	-0.0649157 	-0.0409849 	1.23732e-20
0.911805 	0 	2.77556e-18 	-0.0671302 	-0.0506248 	-1.14661e-20
0.911805 	2.23919e-19 	-6.62608e-18 	-0.0694649 	-0.0437894 	8.35019e-22
0.935616 	0 	1.38778e-18 	-0.0713491 	-0.0527505 	-3.30488e-21
0.935616 	2.23919e-19 	-6.63404e-18 	-0.0739017 	-0.0462094 	6.58891e-22
0.960546 	0 	1.38778e-18 	-0.075441 	-0.0543813 	-6.35583e-21
0.960546 	2.23919e-19 	-6.64195e-18 	-0.0782489 	-0.0481428 	-1.50799e-20
0.986649 	0 	2.77556e-18 	-0.0794543 	-0.0556346 	1.51441e-20
0.986649 	2.23919e-19 	-6.64981e-18 	-0.0824914 	-0.0497151 	3.14279e-20
1.04027 	0 	4.16334e-18 	-0.0875215 	-0.0565852 	-5.82122e-21
1.04027 	2.23919e-19 	-6.65356e-18 	-0.0903703 	-0.0513322 	6.15561e-21
1.12228 	0 	2.77556e-18 	-0.0963226 	-0.0544418 	2.77275e-21
1.12228 	2.23919e-19 	-6.65322e-18 	-0.0999887 	-0.0513633 	-4.15433e-21
1.20725 	0 	1.38778e-18 	-0.10026 	-0.0488179 	-3.42859e-21
1.20725 	2.23919e-19 	-6.65288e-18 	-0.104677 	-0.0478961 	3.23566e-21
1.29529 	0 	2.77556e-18 	-0.0994531 	-0.0393324 	-9.85767e-22
1.29529 	2.23919e-19 	-8.0403e-18 	-0.104603 	-0.0408099 	-6.82828e-22
1.38652 	0 	3.81639e-18 	-0.092965 	-0.0262909 	9.13355e-21
1.38652 	2.23919e-19 	-8.03992e-18 	-0.0988544 	-0.0300961 	-7.73901e-21
1.48106 	0 	3.46945e-18 	-0.0807568 	-0.0100168 	-5.28656e-21
1.48106 	2.23919e-19 	-6.65176e-18 	-0.0873895 	-0.0160658 	6.17559e-21
1.57901 	0 	5.20417e-18 	-0.0626488 	0.00880965 	-1.39953e-21
1.57901 	2.23919e-19 	-8.03913e-18 	-0.0700278 	0.000693907 	1.38212e-23
1.68051 	0 	6.93889e-18 	-0.0388368 	0.0292632 	3.34266e-21
1.68051 	2.23919e-19 	-8.03871e-18 	-0.0469188 	0.0193067 	-4.30144e-21
1.78568 	0 	6.93889e-18 	-0.00951755 	0.0502707 	-6.65432e-22
1.78568 	2.23919e-19 	-6.6505e-18 	-0.0182223 	0.0387252 	1.74543e-21
1.89466 	0 	6.93889e-18 	0.0248781 	0.070492 	-1.09781e-21
1.89466 	2.23919e-19 	-6.65005e-18 	0.0156843 	0.0576468 	1.89336e-21
2.00758 	0 	6.93889e-18 	0.0637613 	0.0887165 	4.14051e-22
2.00758 	2.23919e-19 	-6.64958e-18 	0.0542745 	0.0748911 	-2.10818e-22
2.12458 	0 	5.20417e-18 	0.106543 	0.103756 	2.53715e-21
2.12458 	2.23919e-19 	-6.64909e-18 	0.0969909 	0.0892384 	-1.0368e-21
2.24582 	0 	3.46945e-18 	0.152552 	0.114668 	-1.43849e-21
2.24582 	2.23919e-19 	-8.03636e-18 	0.143195 	0.0997266 	1.06409e-21
2.37145 	0 	3.46945e-19 	0.201172 	0.12083 	-1.69672e-22
2.37145 	2.23919e-19 	-8.03583e-18 	0.192275 	0.1057 	-9.0055e-22
2.50162 	0 	-1.38778e-18 	0.251838 	0.121973 	9.312e-24
2.50162 	2.23919e-19 	-6.6475e-18 	0.243644 	0.106851 	-5.18716e-23
2.6365 	0 	0 	0.304051 	0.118206 	-3.67283e-22
2.6365 	2.23919e-19 	-3.17748e-18 	0.296762 	0.103253 	4.6456e-22
2.77627 	0 	0 	0.35737 	0.109978 	4.77397e-22
2.77627 	2.23919e-19 	1.46128e-19 	0.351132 	0.0953287 	-1.03073e-21
2.92109 	0 	0 	0.411369 	0.0980596 	6.4489e-23
2.92109 	0 	0 	0.406258 	0.0838376 	-6.254e-23
3.07115 	0 	-1.73472e-18 	0.465586 	0.0834524 	6.73119e-23
3.07115 	0 	0 	0.461609 	0.0697795 	4.16729e-23
3.22664 	0 	-5.20417e-18 	0.519491 	0.0673213 	9.31354e-23
3.22664 	0 	1.73472e-18 	0.516589 	0.0543233 	-1.17311e-22
3.38776 	0 	-6.93889e-18 	0.572449 	0.0508756 	-2.41627e-24
3.38776 	0 	5.20417e-18 	0.570507 	0.0386843 	-8.83794e-23
3.55471 	0 	-5.20417e-18 	0.62374 	0.0352448 	1.76767e-23
3.55471 	0 	6.93889e-18 	0.622603 	0.0239886 	1.48672e-23
3.7277 	0 	6.93889e-18 	0.672093 	0.0111414 	1.13958e-23
3.7277 	0 	-3.46945e-18 	0.672599 	0.0213538 	6.86172e-24
3.90695 	0 	6.93889e-18 	0.718238 	0.000745613 	1.4786e-23
3.90695 	0 	-3.46945e-18 	0.718289 	0.00983483 	-7.40882e-23
4.09268 	0 	-3.46945e-18 	0.760169 	0.000975943 	1.30073e-22
4.09268 	0 	6.93889e-18 	0.760416 	-0.00695243 	-2.36659e-23
4.28514 	0 	-3.46945e-18 	0.797782 	-0.00526348 	-4.97133e-23
4.28514 	0 	5.55112e-18 	0.798193 	-0.0120403 	2.4135e-23
4.48456 	0 	4.16334e-18 	0.83135 	-0.0148635 	-2.37925e-24
4.48456 	0 	-1.73472e-18 	0.830873 	-0.00918363 	4.60989e-23
4.69119 	0 	4.16334e-18 	0.859922 	-0.0159157 	4.02266e-24
4.69119 	0 	0 	0.859446 	-0.0112409 	-1.76879e-23
