0.502225 	0 	0 	-1.33753e-05 	7.69985e-05 	-9.39461e-22
0.50678 	0 	0 	-7.66566e-05 	0.000224796 	3.33528e-21
0.511549 	0 	0 	-0.000218225 	0.000368809 	-8.25597e-22
0.516543 	0 	0 	-0.000438271 	0.000508569 	-3.76856e-22
0.516543 	0 	6.93889e-18 	-0.000438271 	-0.000508571 	-3.18476e-21
0.521771 	0 	0 	-0.000736293 	0.000643594 	-1.47024e-21
0.521771 	0 	6.93889e-18 	-0.000736294 	-0.000643597 	1.54911e-21
0.527245 	0 	0 	-0.00111465 	0.000773331 	1.20646e-21
0.527245 	0 	6.93889e-18 	-0.00111465 	-0.000773334 	-1.31262e-21
0.532976 	0 	0 	-0.00157592 	0.000897211 	-3.19769e-21
0.532976 	0 	6.93889e-18 	-0.00157592 	-0.000897215 	3.03742e-21
0.538976 	0 	6.245e-18 	-0.00212194 	-0.00101468 	-3.54013e-21
0.538976 	0 	0 	-0.00212194 	0.00101468 	3.30373e-21
0.545259 	0 	3.81639e-18 	-0.00275395 	-0.00112518 	1.06759e-21
0.545259 	0 	0 	-0.00275395 	0.00112518 	-6.82452e-22
0.551837 	0 	2.08167e-18 	-0.00347257 	-0.00122817 	2.1932e-21
0.551837 	0 	0 	-0.00347257 	0.00122817 	-2.3154e-21
0.558725 	0 	6.93889e-19 	-0.00427784 	-0.00132313 	-3.09739e-21
0.558725 	0 	0 	-0.00427784 	0.00132313 	2.74695e-21
0.565936 	0 	-6.93889e-19 	-0.00516906 	-0.00140957 	-2.04384e-22
0.565936 	0 	0 	-0.00516906 	0.00140956 	-8.89246e-22
0.573486 	0 	-2.08167e-18 	-0.0061448 	-0.001487 	2.85153e-21
0.573486 	0 	0 	-0.0061448 	0.001487 	-3.36205e-21
0.581392 	0 	-3.46945e-18 	-0.00720281 	-0.001555 	-1.45234e-21
0.581392 	0 	0 	-0.00720281 	0.001555 	1.57085e-21
0.589669 	0 	-3.46945e-18 	-0.00834002 	-0.00161318 	-4.02272e-22
0.589669 	0 	-1.38778e-18 	-0.00834002 	0.00161318 	6.02748e-22
0.598335 	0 	-3.46945e-18 	-0.00955249 	-0.00166121 	1.87971e-21
0.598335 	0 	-2.08167e-18 	-0.00955249 	0.0016612 	-2.38312e-21
0.607408 	0 	-1.38778e-18 	-0.0108354 	0.00169879 	5.73454e-21
0.607408 	0 	-3.46945e-18 	-0.0108354 	-0.00169879 	-4.82255e-21
0.616908 	0 	-1.38778e-18 	-0.0121829 	0.00172573 	-1.78029e-21
0.616908 	0 	-3.46945e-18 	-0.0121829 	-0.00172574 	1.15688e-21
0.626855 	0 	-3.85186e-34 	-0.0135885 	0.00174189 	-3.22735e-21
0.626855 	0 	-3.46945e-18 	-0.0135885 	-0.0017419 	2.92916e-21
0.637269 	0 	1.38778e-18 	-0.0150447 	0.00174724 	2.11704e-21
0.637269 	0 	-1.73472e-18 	-0.0150447 	-0.00174725 	-2.71567e-21
0.648173 	0 	-1.73472e-18 	-0.0165431 	0.00174181 	1.42953e-21
0.648173 	0 	-3.46945e-19 	-0.0165431 	-0.00174182 	-2.54031e-21
0.65959 	0 	-2.42861e-18 	-0.0180747 	-0.00172579 	3.88463e-21
0.65959 	0 	-4.85723e-18 	-0.0180747 	0.00172578 	-1.3497e-21
0.671543 	0 	-6.245e-18 	-0.0196297 	0.0016994 	-1.40976e-21
0.671543 	0 	-4.16334e-18 	-0.0196297 	-0.00169941 	1.49422e-21
0.684059 	0 	-5.89806e-18 	-0.0211979 	0.00166309 	2.50386e-21
0.684059 	0 	-2.77556e-18 	-0.0211979 	-0.0016631 	-4.40215e-21
0.697162 	0 	-3.1225e-18 	-0.0227686 	-0.0016174 	-3.96642e-22
0.697162 	0 	-5.89806e-18 	-0.0227686 	0.00161739 	-1.78682e-21
0.710882 	2.1784e-18 	3.90304e-18 	-0.024331 	0.00156297 	2.3566e-21
0.725247 	2.1784e-18 	3.82576e-18 	-0.025874 	0.0015007 	-2.22196e-21
0.740287 	2.1784e-18 	2.78603e-19 	-0.0273871 	0.00143159 	-2.94427e-21
0.756034 	2.1784e-18 	2.00556e-19 	-0.0288602 	0.00135682 	-1.10531e-21
0.772522 	2.1784e-18 	5.32642e-18 	-0.0302839 	0.00127778 	3.11737e-21
0.789785 	2.1784e-18 	5.24793e-18 	-0.0316503 	0.001196 	1.35027e-21
0.807859 	2.1784e-18 	3.43463e-18 	-0.0329527 	0.00111321 	-4.77587e-21
0.826783 	2.1784e-18 	5.16711e-18 	-0.0341866 	0.00103128 	2.75649e-21
0.846597 	2.23919e-19 	-1.21531e-17 	-0.0353496 	0.000952197 	5.43723e-21
0.867342 	0 	4.51028e-18 	-0.0364423 	-0.000878036 	8.40268e-21
0.867342 	2.23919e-19 	-1.07734e-17 	-0.0364423 	0.000878027 	-6.72718e-21
0.889063 	0 	4.16334e-18 	-0.0374682 	-0.000810836 	1.42434e-21
0.889063 	2.23919e-19 	-8.00586e-18 	-0.0374682 	0.000810828 	2.26171e-21
0.911805 	0 	2.77556e-18 	-0.0384338 	-0.000752499 	-2.41474e-21
0.911805 	2.23919e-19 	-6.62608e-18 	-0.0384338 	0.000752491 	1.90406e-22
0.935616 	0 	1.38778e-18 	-0.0393462 	-0.000704655 	-6.8175e-22
0.935616 	2.23919e-19 	-6.63404e-18 	-0.0393462 	0.000704647 	1.2448e-22
0.960546 	0 	1.38778e-18 	-0.0402134 	-0.000669253 	-1.31155e-21
0.960546 	2.23919e-19 	-6.64195e-18 	-0.0402134 	0.000669246 	-2.82138e-21
0.986649 	0 	2.77556e-18 	-0.0410781 	-0.000648694 	3.08686e-21
0.986649 	2.23919e-19 	-6.64981e-18 	-0.0410781 	0.000648687 	5.46688e-21
1.04027 	0 	4.16334e-18 	-0.0429582 	-0.000623548 	-1.03606e-21
1.04027 	2.23919e-19 	-6.65356e-18 	-0.0429582 	0.000623543 	1.00358e-21
1.12228 	0 	2.77556e-18 	-0.0449446 	-9.69057e-05 	4.77703e-22
1.12228 	2.23919e-19 	-6.65322e-18 	-0.0449446 	9.69036e-05 	-6.64582e-22
1.20725 	0 	1.38778e-18 	-0.0442198 	0.000367612 	-6.70072e-22
1.20725 	2.23919e-19 	-6.65288e-18 	-0.0442198 	-0.00036761 	5.87788e-22
1.29529 	0 	2.77556e-18 	-0.0415594 	0.000863183 	-2.36445e-22
1.29529 	2.23919e-19 	-8.0403e-18 	-0.0415594 	-0.000863178 	-7.9532e-23
1.38652 	0 	3.81639e-18 	-0.0364808 	0.00131857 	1.87126e-21
1.38652 	2.23919e-19 	-8.03992e-18 	-0.0364808 	-0.00131856 	-1.46907e-21
1.48106 	0 	3.46945e-18 	-0.0291603 	0.00171601 	-1.11615e-21
1.48106 	2.23919e-19 	-6.65176e-18 	-0.0291603 	-0.001716 	1.21047e-21
1.57901 	0 	5.20417e-18 	-0.0197379 	0.0020466 	-3.41161e-22
1.57901 	2.23919e-19 	-8.03913e-18 	-0.0197379 	-0.00204657 	3.13816e-23
1.68051 	0 	6.93889e-18 	-0.00842374 	0.00230916 	7.72874e-22
1.68051 	2.23919e-19 	-8.03871e-18 	-0.00842375 	-0.00230914 	-9.24913e-22
1.78568 	0 	6.93889e-18 	0.00455466 	0.00250839 	-1.51078e-22
1.78568 	2.23919e-19 	-6.6505e-18 	0.00455466 	-0.00250836 	3.87123e-22
1.89466 	0 	6.93889e-18 	0.0189738 	0.00265147 	-2.98755e-22
1.89466 	2.23919e-19 	-6.65005e-18 	0.0189738 	-0.00265143 	4.70777e-22
2.00758 	0 	6.93889e-18 	0.0346237 	0.00274647 	9.37145e-23
2.00758 	2.23919e-19 	-6.64958e-18 	0.0346237 	-0.00274642 	-3.31605e-23
2.12458 	0 	5.20417e-18 	0.0513139 	0.00280126 	7.94333e-22
2.12458 	2.23919e-19 	-6.64909e-18 	0.0513139 	-0.00280121 	-3.01686e-22
2.24582 	0 	3.46945e-18 	0.0688751 	0.00282295 	-4.88293e-22
2.24582 	2.23919e-19 	-8.03636e-18 	0.0688751 	-0.00282289 	3.25703e-22
2.37145 	0 	3.46945e-19 	0.0871576 	0.00281771 	-8.87187e-23
2.37145 	2.23919e-19 	-8.03583e-18 	0.0871576 	-0.00281765 	-2.84861e-22
2.50162 	0 	-1.38778e-18 	0.10603 	0.00279075 	-3.24154e-24
2.50162 	2.23919e-19 	-6.6475e-18 	0.10603 	-0.00279069 	-1.35731e-23
2.6365 	0 	0 	0.125377 	0.0027464 	-2.14614e-22
2.6365 	2.23919e-19 	-3.17748e-18 	0.125377 	-0.00274635 	2.24428e-22
2.77627 	0 	0 	0.145095 	0.00268827 	2.71518e-22
2.77627 	2.23919e-19 	1.46128e-19 	0.145095 	-0.00268822 	-5.06863e-22
2.92109 	0 	0 	0.165095 	0.00261932 	1.7567e-23
2.92109 	0 	0 	0.165095 	-0.00261927 	-1.32886e-23
3.07115 	0 	-1.73472e-18 	0.185295 	0.002542 	4.131e-23
3.07115 	0 	0 	0.185295 	-0.00254196 	5.4489e-23
3.22664 	0 	-5.20417e-18 	0.205624 	0.00245835 	1.30177e-22
3.22664 	0 	1.73472e-18 	0.205624 	-0.00245833 	-1.03895e-22
3.38776 	0 	-6.93889e-18 	0.226016 	0.00237008 	-1.88432e-23
3.38776 	0 	5.20417e-18 	0.226016 	-0.00237007 	-1.57407e-22
3.55471 	0 	-5.20417e-18 	0.246414 	0.0022786 	-5.63721e-23
3.55471 	0 	6.93889e-18 	0.246414 	-0.0022786 	2.47711e-23
3.7277 	0 	6.93889e-18 	0.266764 	-0.00218511 	5.21105e-23
3.7277 	0 	-3.46945e-18 	0.266764 	0.0021851 	-3.76878e-23
3.90695 	0 	6.93889e-18 	0.287021 	-0.00209058 	2.17523e-23
3.90695 	0 	-3.46945e-18 	0.287021 	0.00209055 	1.17839e-22
4.09268 	0 	-3.46945e-18 	0.307137 	0.00199587 	-1.63917e-22
4.09268 	0 	6.93889e-18 	0.307137 	-0.00199592 	2.80446e-23
4.28514 	0 	-3.46945e-18 	0.327085 	0.0019016 	6.65953e-23
4.28514 	0 	5.55112e-18 	0.327085 	-0.00190167 	-8.18882e-23
4.48456 	0 	4.16334e-18 	0.34681 	-0.00180876 	-7.08129e-24
4.48456 	0 	-1.73472e-18 	0.34681 	0.00180868 	-4.10893e-23
4.69119 	0 	4.16334e-18 	0.366319 	-0.00171707 	-5.20032e-24
4.69119 	0 	0 	0.366319 	0.00171697 	1.52356e-23
