0.502225 	0 	0 	-1.33876e-05 	7.70672e-05 	-9.50617e-22
0.50678 	0 	0 	-7.6724e-05 	0.00022499 	3.37481e-21
0.511549 	0 	0 	-0.000218412 	0.000369119 	-8.35418e-22
0.516543 	0 	0 	-0.000438639 	0.000508984 	-3.81338e-22
0.516543 	0 	6.93889e-18 	-0.000438639 	-0.000508984 	-3.22234e-21
0.521771 	0 	0 	-0.000736898 	0.000644103 	-1.48757e-21
0.521771 	0 	6.93889e-18 	-0.000736898 	-0.000644103 	1.56736e-21
0.527245 	0 	0 	-0.00111555 	0.000773921 	1.22062e-21
0.527245 	0 	6.93889e-18 	-0.00111555 	-0.000773921 	-1.32803e-21
0.532976 	0 	0 	-0.00157715 	0.000897871 	-3.23516e-21
0.532976 	0 	6.93889e-18 	-0.00157715 	-0.00089787 	3.07302e-21
0.538976 	0 	6.245e-18 	-0.00212357 	-0.00101539 	-3.58154e-21
0.538976 	0 	0 	-0.00212357 	0.00101539 	3.34238e-21
0.545259 	0 	3.81639e-18 	-0.002756 	-0.00112593 	1.08007e-21
0.545259 	0 	0 	-0.002756 	0.00112593 	-6.90445e-22
0.551837 	0 	2.08167e-18 	-0.00347509 	-0.00122895 	2.21875e-21
0.551837 	0 	0 	-0.00347509 	0.00122895 	-2.34236e-21
0.558725 	0 	6.93889e-19 	-0.00428085 	-0.00132392 	-3.13342e-21
0.558725 	0 	0 	-0.00428085 	0.00132392 	2.77891e-21
0.565936 	0 	-6.93889e-19 	-0.00517257 	-0.00141035 	-2.0673e-22
0.565936 	0 	0 	-0.00517257 	0.00141035 	-8.99587e-22
0.573486 	0 	-2.08167e-18 	-0.00614882 	-0.00148776 	2.88459e-21
0.573486 	0 	0 	-0.00614882 	0.00148776 	-3.40102e-21
0.581392 	0 	-3.46945e-18 	-0.00720734 	-0.00155572 	-1.46918e-21
0.581392 	0 	0 	-0.00720734 	0.00155573 	1.58906e-21
0.589669 	0 	-3.46945e-18 	-0.00834504 	-0.00161385 	-4.0693e-22
0.589669 	0 	-1.38778e-18 	-0.00834504 	0.00161385 	6.09722e-22
0.598335 	0 	-3.46945e-18 	-0.00955797 	-0.0016618 	1.90141e-21
0.598335 	0 	-2.08167e-18 	-0.00955797 	0.0016618 	-2.41064e-21
0.607408 	0 	-1.38778e-18 	-0.0108413 	0.0016993 	5.80071e-21
0.607408 	0 	-3.46945e-18 	-0.0108413 	-0.0016993 	-4.87821e-21
0.616908 	0 	-1.38778e-18 	-0.0121892 	0.00172614 	-1.80083e-21
0.616908 	0 	-3.46945e-18 	-0.0121892 	-0.00172613 	1.17024e-21
0.626855 	0 	-3.85186e-34 	-0.013595 	0.00174218 	-3.26455e-21
0.626855 	0 	-3.46945e-18 	-0.013595 	-0.00174218 	2.96292e-21
0.637269 	0 	1.38778e-18 	-0.0150513 	0.00174738 	2.14143e-21
0.637269 	0 	-1.73472e-18 	-0.0150513 	-0.00174738 	-2.74696e-21
0.648173 	0 	-1.73472e-18 	-0.0165498 	0.0017418 	1.446e-21
0.648173 	0 	-3.46945e-19 	-0.0165498 	-0.0017418 	-2.56957e-21
0.65959 	0 	-2.42861e-18 	-0.0180812 	-0.00172559 	3.92937e-21
0.65959 	0 	-4.85723e-18 	-0.0180812 	0.00172559 	-1.36526e-21
0.671543 	0 	-6.245e-18 	-0.019636 	0.00169903 	-1.42601e-21
0.671543 	0 	-4.16334e-18 	-0.019636 	-0.00169903 	1.51145e-21
0.684059 	0 	-5.89806e-18 	-0.0212037 	0.00166252 	2.53274e-21
0.684059 	0 	-2.77556e-18 	-0.0212037 	-0.00166252 	-4.45291e-21
0.697162 	0 	-3.1225e-18 	-0.0227737 	-0.0016166 	-4.01233e-22
0.697162 	0 	-5.89806e-18 	-0.0227737 	0.00161661 	-1.80741e-21
0.710882 	2.1784e-18 	3.90304e-18 	-0.0243351 	0.00156197 	2.38384e-21
0.725247 	2.1784e-18 	3.82576e-18 	-0.025877 	0.00149947 	-2.24765e-21
0.740287 	2.1784e-18 	2.78603e-19 	-0.0273886 	0.00143012 	-2.97838e-21
0.756034 	2.1784e-18 	2.00556e-19 	-0.0288599 	0.00135512 	-1.11814e-21
0.772522 	2.1784e-18 	5.32642e-18 	-0.0302816 	0.00127583 	3.15369e-21
0.789785 	2.1784e-18 	5.24793e-18 	-0.0316455 	0.00119382 	1.36613e-21
0.807859 	2.1784e-18 	3.43463e-18 	-0.0329452 	0.00111081 	-4.83171e-21
0.826783 	2.1784e-18 	5.16711e-18 	-0.0341761 	0.00102867 	2.78881e-21
0.846597 	2.23919e-19 	-1.21531e-17 	-0.0353358 	0.000949391 	5.5013e-21
0.867342 	0 	4.51028e-18 	-0.0364248 	-0.000875066 	8.50194e-21
0.867342 	2.23919e-19 	-1.07734e-17 	-0.0364248 	0.000875056 	-6.80665e-21
0.889063 	0 	4.16334e-18 	-0.0374467 	-0.000807736 	1.44138e-21
0.889063 	2.23919e-19 	-8.00586e-18 	-0.0374467 	0.000807723 	2.28839e-21
0.911805 	0 	2.77556e-18 	-0.0384082 	-0.000749307 	-2.44339e-21
0.911805 	2.23919e-19 	-6.62608e-18 	-0.0384082 	0.000749292 	1.92567e-22
0.935616 	0 	1.38778e-18 	-0.0393163 	-0.000701418 	-6.89842e-22
0.935616 	2.23919e-19 	-6.63404e-18 	-0.0393163 	0.000701401 	1.25903e-22
0.960546 	0 	1.38778e-18 	-0.0401789 	-0.000666026 	-1.32729e-21
0.960546 	2.23919e-19 	-6.64195e-18 	-0.0401789 	0.000666005 	-2.85545e-21
0.986649 	0 	2.77556e-18 	-0.0410392 	-0.000645541 	3.12418e-21
0.986649 	2.23919e-19 	-6.64981e-18 	-0.0410392 	0.000645516 	5.53284e-21
1.04027 	0 	4.16334e-18 	-0.0429112 	-0.000620633 	-1.0488e-21
1.04027 	2.23919e-19 	-6.65356e-18 	-0.0429112 	0.000620601 	1.01593e-21
1.12228 	0 	2.77556e-18 	-0.0448841 	-9.31851e-05 	4.83513e-22
1.12228 	2.23919e-19 	-6.65322e-18 	-0.0448841 	9.3144e-05 	-6.72728e-22
1.20725 	0 	1.38778e-18 	-0.0441406 	0.000372205 	-6.78844e-22
1.20725 	2.23919e-19 	-6.65288e-18 	-0.0441406 	-0.000372254 	5.95506e-22
1.29529 	0 	2.77556e-18 	-0.0414576 	0.000868916 	-2.39906e-22
1.29529 	2.23919e-19 	-8.0403e-18 	-0.0414576 	-0.000868972 	-8.0234e-23
1.38652 	0 	3.81639e-18 	-0.0363494 	0.00132553 	1.8967e-21
1.38652 	2.23919e-19 	-8.03992e-18 	-0.0363494 	-0.0013256 	-1.48904e-21
1.48106 	0 	3.46945e-18 	-0.0289921 	0.00172434 	-1.13178e-21
1.48106 	2.23919e-19 	-6.65176e-18 	-0.0289921 	-0.00172441 	1.22743e-21
1.57901 	0 	5.20417e-18 	-0.0195244 	0.00205637 	-3.46421e-22
1.57901 	2.23919e-19 	-8.03913e-18 	-0.0195244 	-0.00205643 	3.21141e-23
1.68051 	0 	6.93889e-18 	-0.00815562 	0.00232042 	7.84555e-22
1.68051 	2.23919e-19 	-8.03871e-18 	-0.00815562 	-0.00232048 	-9.38909e-22
1.78568 	0 	6.93889e-18 	0.00488756 	0.00252115 	-1.53374e-22
1.78568 	2.23919e-19 	-6.6505e-18 	0.00488755 	-0.0025212 	3.93167e-22
1.89466 	0 	6.93889e-18 	0.0193823 	0.00266573 	-3.03857e-22
1.89466 	2.23919e-19 	-6.65005e-18 	0.0193823 	-0.00266577 	4.78737e-22
2.00758 	0 	6.93889e-18 	0.0351193 	0.00276221 	9.50711e-23
2.00758 	2.23919e-19 	-6.64958e-18 	0.0351193 	-0.00276224 	-3.34618e-23
2.12458 	0 	5.20417e-18 	0.0519089 	0.00281847 	8.08874e-22
2.12458 	2.23919e-19 	-6.64909e-18 	0.0519089 	-0.00281848 	-3.07201e-22
2.24582 	0 	3.46945e-18 	0.0695822 	0.00284161 	-4.97664e-22
2.24582 	2.23919e-19 	-8.03636e-18 	0.0695822 	-0.0028416 	3.31936e-22
2.37145 	0 	3.46945e-19 	0.0879905 	0.0028378 	-9.06383e-23
2.37145 	2.23919e-19 	-8.03583e-18 	0.0879905 	-0.00283776 	-2.90555e-22
2.50162 	0 	-1.38778e-18 	0.107003 	0.00281225 	-3.36779e-24
2.50162 	2.23919e-19 	-6.6475e-18 	0.107003 	-0.00281218 	-1.38095e-23
2.6365 	0 	0 	0.126505 	0.00276931 	-2.19731e-22
2.6365 	2.23919e-19 	-3.17748e-18 	0.126505 	-0.00276921 	2.29769e-22
2.77627 	0 	0 	0.146394 	0.00271257 	2.78033e-22
2.77627 	2.23919e-19 	1.46128e-19 	0.146394 	-0.00271244 	-5.19104e-22
2.92109 	0 	0 	0.166582 	0.00264502 	1.78122e-23
2.92109 	0 	0 	0.166582 	-0.00264485 	-1.34228e-23
3.07115 	0 	-1.73472e-18 	0.186989 	0.00256911 	4.22369e-23
3.07115 	0 	0 	0.186989 	-0.00256891 	5.62171e-23
3.22664 	0 	-5.20417e-18 	0.207544 	0.0024869 	1.33921e-22
3.22664 	0 	1.73472e-18 	0.207544 	-0.00248667 	-1.06858e-22
3.38776 	0 	-6.93889e-18 	0.228182 	0.00240009 	-1.94535e-23
3.38776 	0 	5.20417e-18 	0.228182 	-0.00239983 	-1.62601e-22
3.55471 	0 	-5.20417e-18 	0.248849 	0.0023101 	-5.82858e-23
3.55471 	0 	6.93889e-18 	0.248849 	-0.00230981 	2.53956e-23
3.7277 	0 	6.93889e-18 	0.269492 	-0.00221785 	5.40318e-23
3.7277 	0 	-3.46945e-18 	0.269492 	0.00221815 	-3.90736e-23
3.90695 	0 	6.93889e-18 	0.290069 	-0.0021249 	2.26077e-23
3.90695 	0 	-3.46945e-18 	0.290069 	0.00212522 	1.22598e-22
4.09268 	0 	-3.46945e-18 	0.310533 	0.00203225 	-1.71149e-22
4.09268 	0 	6.93889e-18 	0.310533 	-0.00203192 	2.93344e-23
4.28514 	0 	-3.46945e-18 	0.330861 	0.00193976 	6.96517e-23
4.28514 	0 	5.55112e-18 	0.330861 	-0.00193944 	-8.56732e-23
4.48456 	0 	4.16334e-18 	0.350998 	-0.00184848 	-7.45767e-24
4.48456 	0 	-1.73472e-18 	0.350998 	0.00184878 	-4.32276e-23
4.69119 	0 	4.16334e-18 	0.370965 	-0.00175878 	-5.48587e-24
4.69119 	0 	0 	0.370964 	0.00175904 	1.60945e-23
