0.502225 	0 	0 	-464.543
0.50678 	0 	0 	-440.588
0.511549 	0 	0 	-416.536
0.516543 	0 	0 	-386.488
0.516543 	0 	6.93889e-18 	-335.178
0.521771 	0 	0 	-347.532
0.521771 	0 	6.93889e-18 	-313.415
0.527245 	0 	0 	-304.842
0.527245 	0 	6.93889e-18 	-289.833
0.532976 	0 	0 	-263.573
0.532976 	0 	6.93889e-18 	-265.033
0.538976 	0 	6.245e-18 	-239.483
0.538976 	0 	0 	-227.369
0.545259 	0 	3.81639e-18 	-212.55
0.545259 	0 	0 	-196.081
0.551837 	0 	2.08167e-18 	-183.768
0.551837 	0 	0 	-167.652
0.558725 	0 	6.93889e-19 	-153.661
0.558725 	0 	0 	-140.818
0.565936 	0 	-6.93889e-19 	-123.783
0.565936 	0 	0 	-115.57
0.573486 	0 	-2.08167e-18 	-96.03
0.573486 	0 	0 	-92.4328
0.581392 	0 	-3.46945e-18 	-71.9516
0.581392 	0 	0 	-71.8976
0.589669 	0 	-3.46945e-18 	-52.3175
0.589669 	0 	-1.38778e-18 	-54.2971
0.598335 	0 	-3.46945e-18 	-37.1579
0.598335 	0 	-2.08167e-18 	-39.8628
0.607408 	0 	-1.38778e-18 	-28.4978
0.607408 	0 	-3.46945e-18 	-25.843
0.616908 	0 	-1.38778e-18 	-19.8666
0.616908 	0 	-3.46945e-18 	-17.6434
0.626855 	0 	-3.85186e-34 	-13.5334
0.626855 	0 	-3.46945e-18 	-11.8789
0.637269 	0 	1.38778e-18 	-9.05036
0.637269 	0 	-1.73472e-18 	-7.94851
0.648173 	0 	-1.73472e-18 	-5.99264
0.648173 	0 	-3.46945e-19 	-5.35309
0.65959 	0 	-2.42861e-18 	-3.69877
0.65959 	0 	-4.85723e-18 	-3.98617
0.671543 	0 	-6.245e-18 	-2.72185
0.671543 	0 	-4.16334e-18 	-2.68067
0.684059 	0 	-5.89806e-18 	-1.95842
0.684059 	0 	-2.77556e-18 	-2.07135
0.697162 	0 	-3.1225e-18 	-1.71729
0.697162 	0 	-5.89806e-18 	-1.51505
0.710882 	2.1784e-18 	3.90304e-18 	-1.26518
0.725247 	2.1784e-18 	3.82576e-18 	-1.12787
0.740287 	2.1784e-18 	2.78603e-19 	-1.05222
0.756034 	2.1784e-18 	2.00556e-19 	-1.00794
0.772522 	2.1784e-18 	5.32642e-18 	-0.978238
0.789785 	2.1784e-18 	5.24793e-18 	-0.954536
0.807859 	2.1784e-18 	3.43463e-18 	-0.932874
0.826783 	2.1784e-18 	5.16711e-18 	-0.911683
0.846597 	2.23919e-19 	-1.21531e-17 	-0.890531
0.867342 	0 	4.51028e-18 	-1.15301
0.867342 	2.23919e-19 	-1.07734e-17 	-0.869437
0.889063 	0 	4.16334e-18 	-1.13058
0.889063 	2.23919e-19 	-8.00586e-18 	-0.848557
0.911805 	0 	2.77556e-18 	-1.10827
0.911805 	2.23919e-19 	-6.62608e-18 	-0.828048
0.935616 	0 	1.38778e-18 	-1.08602
0.935616 	2.23919e-19 	-6.63404e-18 	-0.807906
0.960546 	0 	1.38778e-18 	-1.06387
0.960546 	2.23919e-19 	-6.64195e-18 	-0.788193
0.986649 	0 	2.77556e-18 	-1.04188
0.986649 	2.23919e-19 	-6.64981e-18 	-0.769284
1.04027 	0 	4.16334e-18 	-0.999073
1.04027 	2.23919e-19 	-6.65356e-18 	-0.733858
1.12228 	0 	2.77556e-18 	-0.934953
1.12228 	2.23919e-19 	-6.65322e-18 	-0.685221
1.20725 	0 	1.38778e-18 	-0.875848
1.20725 	2.23919e-19 	-6.65288e-18 	-0.643869
1.29529 	0 	2.77556e-18 	-0.82055
1.29529 	2.23919e-19 	-8.0403e-18 	-0.606956
1.38652 	0 	3.81639e-18 	-0.769428
1.38652 	2.23919e-19 	-8.03992e-18 	-0.573943
1.48106 	0 	3.46945e-18 	-0.721583
1.48106 	2.23919e-19 	-6.65176e-18 	-0.543396
1.57901 	0 	5.20417e-18 	-0.67661
1.57901 	2.23919e-19 	-8.03913e-18 	-0.514606
1.68051 	0 	6.93889e-18 	-0.634316
1.68051 	2.23919e-19 	-8.03871e-18 	-0.487401
1.78568 	0 	6.93889e-18 	-0.594305
1.78568 	2.23919e-19 	-6.6505e-18 	-0.461241
1.89466 	0 	6.93889e-18 	-0.556146
1.89466 	2.23919e-19 	-6.65005e-18 	-0.435706
2.00758 	0 	6.93889e-18 	-0.519902
2.00758 	2.23919e-19 	-6.64958e-18 	-0.41093
2.12458 	0 	5.20417e-18 	-0.485284
2.12458 	2.23919e-19 	-6.64909e-18 	-0.386755
2.24582 	0 	3.46945e-18 	-0.452732
2.24582 	2.23919e-19 	-8.03636e-18 	-0.36352
2.37145 	0 	3.46945e-19 	-0.420735
2.37145 	2.23919e-19 	-8.03583e-18 	-0.340144
2.50162 	0 	-1.38778e-18 	-0.389988
2.50162 	2.23919e-19 	-6.6475e-18 	-0.317078
2.6365 	0 	0 	-0.360408
2.6365 	2.23919e-19 	-3.17748e-18 	-0.29437
2.77627 	0 	0 	-0.331998
2.77627 	2.23919e-19 	1.46128e-19 	-0.272102
2.92109 	0 	0 	-0.304746
2.92109 	0 	0 	-0.250339
3.07115 	0 	-1.73472e-18 	-0.278654
3.07115 	0 	0 	-0.229148
3.22664 	0 	-5.20417e-18 	-0.253702
3.22664 	0 	1.73472e-18 	-0.208588
3.38776 	0 	-6.93889e-18 	-0.229894
3.38776 	0 	5.20417e-18 	-0.188725
3.55471 	0 	-5.20417e-18 	-0.207246
3.55471 	0 	6.93889e-18 	-0.169636
3.7277 	0 	6.93889e-18 	-0.151396
3.7277 	0 	-3.46945e-18 	-0.185776
3.90695 	0 	6.93889e-18 	-0.134042
3.90695 	0 	-3.46945e-18 	-0.165469
4.09268 	0 	-3.46945e-18 	-0.146339
4.09268 	0 	6.93889e-18 	-0.11764
4.28514 	0 	-3.46945e-18 	-0.128328
4.28514 	0 	5.55112e-18 	-0.102168
4.48456 	0 	4.16334e-18 	-0.0876953
4.48456 	0 	-1.73472e-18 	-0.111463
4.69119 	0 	4.16334e-18 	-0.074081
4.69119 	0 	0 	-0.0955784
